# BinNR microsec tot-time (s)  O-Beam AUX Ampl(V) f(Hz) phase(deg) chi(pos)
0 0.00 1200.02 181 532 1.340 10000.000 0.000 -0.681
1 3.00 1200.02 341 1036 1.340 10000.000 0.000 -0.681
2 6.00 1200.02 387 1094 1.340 10000.000 0.000 -0.681
3 9.00 1200.02 318 971 1.340 10000.000 0.000 -0.681
4 12.00 1200.02 381 1058 1.340 10000.000 0.000 -0.681
5 15.00 1200.02 365 1040 1.340 10000.000 0.000 -0.681
6 18.00 1200.02 351 1061 1.340 10000.000 0.000 -0.681
7 21.00 1200.02 357 1054 1.340 10000.000 0.000 -0.681
8 24.00 1200.02 413 979 1.340 10000.000 0.000 -0.681
9 27.00 1200.02 375 1006 1.340 10000.000 0.000 -0.681
10 30.00 1200.02 362 1021 1.340 10000.000 0.000 -0.681
11 33.00 1200.02 365 979 1.340 10000.000 0.000 -0.681
12 36.00 1200.02 348 934 1.340 10000.000 0.000 -0.681
13 39.00 1200.02 351 963 1.340 10000.000 0.000 -0.681
14 42.00 1200.02 377 951 1.340 10000.000 0.000 -0.681
15 45.00 1200.02 390 935 1.340 10000.000 0.000 -0.681
16 48.00 1200.02 373 959 1.340 10000.000 0.000 -0.681
17 51.00 1200.02 389 922 1.340 10000.000 0.000 -0.681
18 54.00 1200.02 384 928 1.340 10000.000 0.000 -0.681
19 57.00 1200.02 390 942 1.340 10000.000 0.000 -0.681
20 60.00 1200.02 365 1017 1.340 10000.000 0.000 -0.681
21 63.00 1200.02 409 1009 1.340 10000.000 0.000 -0.681
22 66.00 1200.02 378 1045 1.340 10000.000 0.000 -0.681
23 69.00 1200.02 368 991 1.340 10000.000 0.000 -0.681
24 72.00 1200.02 357 1039 1.340 10000.000 0.000 -0.681
25 75.00 1200.02 359 1024 1.340 10000.000 0.000 -0.681
26 78.00 1200.02 383 1113 1.340 10000.000 0.000 -0.681
27 81.00 1200.02 397 988 1.340 10000.000 0.000 -0.681
28 84.00 1200.02 375 1097 1.340 10000.000 0.000 -0.681
29 87.00 1200.02 368 1018 1.340 10000.000 0.000 -0.681
30 90.00 1200.02 368 1035 1.340 10000.000 0.000 -0.681
31 93.00 1200.02 311 1023 1.340 10000.000 0.000 -0.681
32 96.00 1200.02 352 1121 1.340 10000.000 0.000 -0.681
33 99.00 1200.02 353 1066 1.340 10000.000 0.000 -0.681
34 102.00 1200.02 340 1076 1.340 10000.000 0.000 -0.681
35 105.00 1200.02 367 1025 1.340 10000.000 0.000 -0.681
36 108.00 1200.02 366 1028 1.340 10000.000 0.000 -0.681
37 111.00 1200.02 366 1038 1.340 10000.000 0.000 -0.681
38 114.00 1200.02 337 1089 1.340 10000.000 0.000 -0.681
39 117.00 1200.02 366 1023 1.340 10000.000 0.000 -0.681
40 120.00 1200.02 353 1096 1.340 10000.000 0.000 -0.681
41 123.00 1200.02 358 975 1.340 10000.000 0.000 -0.681
42 126.00 1200.02 335 1053 1.340 10000.000 0.000 -0.681
43 129.00 1200.02 407 1027 1.340 10000.000 0.000 -0.681
44 132.00 1200.02 359 955 1.340 10000.000 0.000 -0.681
45 135.00 1200.02 331 933 1.340 10000.000 0.000 -0.681
46 138.00 1200.02 390 954 1.340 10000.000 0.000 -0.681
47 141.00 1200.02 349 959 1.340 10000.000 0.000 -0.681
48 144.00 1200.02 378 908 1.340 10000.000 0.000 -0.681
49 147.00 1200.02 337 937 1.340 10000.000 0.000 -0.681
50 150.00 1200.02 381 1023 1.340 10000.000 0.000 -0.681
51 153.00 1200.02 349 965 1.340 10000.000 0.000 -0.681
52 156.00 1200.02 370 1030 1.340 10000.000 0.000 -0.681
53 159.00 1200.02 338 931 1.340 10000.000 0.000 -0.681
54 162.00 1200.02 368 982 1.340 10000.000 0.000 -0.681
55 165.00 1200.02 383 1021 1.340 10000.000 0.000 -0.681
56 168.00 1200.02 376 1062 1.340 10000.000 0.000 -0.681
57 171.00 1200.02 342 1011 1.340 10000.000 0.000 -0.681
58 174.00 1200.02 388 1021 1.340 10000.000 0.000 -0.681
59 177.00 1200.02 345 1029 1.340 10000.000 0.000 -0.681
60 180.00 1200.02 359 1068 1.340 10000.000 0.000 -0.681
61 183.00 1200.02 368 1037 1.340 10000.000 0.000 -0.681
62 186.00 1200.02 363 1089 1.340 10000.000 0.000 -0.681
63 189.00 1200.02 333 1044 1.340 10000.000 0.000 -0.681
64 192.00 1200.02 391 1051 1.340 10000.000 0.000 -0.681
65 195.00 1200.02 333 1084 1.340 10000.000 0.000 -0.681
66 198.00 1200.02 379 1097 1.340 10000.000 0.000 -0.681
67 201.00 1200.02 318 1009 1.340 10000.000 0.000 -0.681
68 204.00 1200.02 328 1106 1.340 10000.000 0.000 -0.681
69 207.00 1200.02 354 1070 1.340 10000.000 0.000 -0.681
70 210.00 1200.02 401 1129 1.340 10000.000 0.000 -0.681
71 213.00 1200.02 381 990 1.340 10000.000 0.000 -0.681
72 216.00 1200.02 353 1075 1.340 10000.000 0.000 -0.681
73 219.00 1200.02 363 1062 1.340 10000.000 0.000 -0.681
74 222.00 1200.02 367 1031 1.340 10000.000 0.000 -0.681
75 225.00 1200.02 381 985 1.340 10000.000 0.000 -0.681
76 228.00 1200.02 358 952 1.340 10000.000 0.000 -0.681
77 231.00 1200.02 348 956 1.340 10000.000 0.000 -0.681
78 234.00 1200.02 353 983 1.340 10000.000 0.000 -0.681
79 237.00 1200.02 357 911 1.340 10000.000 0.000 -0.681
80 240.00 1200.02 375 944 1.340 10000.000 0.000 -0.681
81 243.00 1200.02 398 956 1.340 10000.000 0.000 -0.681
82 246.00 1200.02 362 1004 1.340 10000.000 0.000 -0.681
83 249.00 1200.02 386 942 1.340 10000.000 0.000 -0.681
84 252.00 1200.02 363 970 1.340 10000.000 0.000 -0.681
85 255.00 1200.02 356 956 1.340 10000.000 0.000 -0.681
86 258.00 1200.02 372 884 1.340 10000.000 0.000 -0.681
87 261.00 1200.02 362 957 1.340 10000.000 0.000 -0.681
88 264.00 1200.02 378 992 1.340 10000.000 0.000 -0.681
89 267.00 1200.02 402 1017 1.340 10000.000 0.000 -0.681
90 270.00 1200.02 362 1117 1.340 10000.000 0.000 -0.681
91 273.00 1200.02 351 1006 1.340 10000.000 0.000 -0.681
92 276.00 1200.02 365 1056 1.340 10000.000 0.000 -0.681
93 279.00 1200.02 335 1043 1.340 10000.000 0.000 -0.681
94 282.00 1200.02 380 1097 1.340 10000.000 0.000 -0.681
95 285.00 1200.02 344 1076 1.340 10000.000 0.000 -0.681
96 288.00 1200.02 357 1050 1.340 10000.000 0.000 -0.681
97 291.00 1200.02 337 1087 1.340 10000.000 0.000 -0.681
98 294.00 1200.02 343 1091 1.340 10000.000 0.000 -0.681
99 297.00 1200.02 346 1093 1.340 10000.000 0.000 -0.681
100 300.00 1200.02 357 1034 1.340 10000.000 0.000 -0.681
101 303.00 1200.02 334 981 1.340 10000.000 0.000 -0.681
102 306.00 1200.02 346 1089 1.340 10000.000 0.000 -0.681
103 309.00 1200.02 382 1048 1.340 10000.000 0.000 -0.681
104 312.00 1200.02 355 1060 1.340 10000.000 0.000 -0.681
105 315.00 1200.02 361 1000 1.340 10000.000 0.000 -0.681
106 318.00 1200.02 380 1145 1.340 10000.000 0.000 -0.681
107 321.00 1200.02 385 1043 1.340 10000.000 0.000 -0.681
108 324.00 1200.02 398 1105 1.340 10000.000 0.000 -0.681
109 327.00 1200.02 358 969 1.340 10000.000 0.000 -0.681
110 330.00 1200.02 380 1029 1.340 10000.000 0.000 -0.681
111 333.00 1200.02 382 972 1.340 10000.000 0.000 -0.681
112 336.00 1200.02 345 931 1.340 10000.000 0.000 -0.681
113 339.00 1200.02 357 897 1.340 10000.000 0.000 -0.681
114 342.00 1200.02 358 937 1.340 10000.000 0.000 -0.681
115 345.00 1200.02 368 978 1.340 10000.000 0.000 -0.681
116 348.00 1200.02 388 981 1.340 10000.000 0.000 -0.681
117 351.00 1200.02 338 971 1.340 10000.000 0.000 -0.681
118 354.00 1200.02 372 923 1.340 10000.000 0.000 -0.681
119 357.00 1200.02 360 952 1.340 10000.000 0.000 -0.681
120 360.00 1200.02 392 1074 1.340 10000.000 0.000 -0.681
121 363.00 1200.02 376 1030 1.340 10000.000 0.000 -0.681
122 366.00 1200.02 393 1048 1.340 10000.000 0.000 -0.681
123 369.00 1200.02 389 1038 1.340 10000.000 0.000 -0.681
124 372.00 1200.02 383 1073 1.340 10000.000 0.000 -0.681
125 375.00 1200.02 306 1035 1.340 10000.000 0.000 -0.681
126 378.00 1200.02 350 1058 1.340 10000.000 0.000 -0.681
127 381.00 1200.02 349 1026 1.340 10000.000 0.000 -0.681
128 384.00 1200.02 379 1020 1.340 10000.000 0.000 -0.681
129 387.00 1200.02 354 1018 1.340 10000.000 0.000 -0.681
130 390.00 1200.02 357 1035 1.340 10000.000 0.000 -0.681
131 393.00 1200.02 373 1101 1.340 10000.000 0.000 -0.681
132 396.00 1200.02 360 1095 1.340 10000.000 0.000 -0.681
133 399.00 1200.02 327 1042 1.340 10000.000 0.000 -0.681
134 402.00 1200.02 400 1030 1.340 10000.000 0.000 -0.681
