# BinNR microsec tot-time (s)  O-Beam AUX Ampl(V) f(Hz) phase(deg) chi(pos)
0 0.00 1200.02 158 526 1.340 10000.000 0.000 1.329
1 3.00 1200.02 364 1008 1.340 10000.000 0.000 1.329
2 6.00 1200.02 369 1044 1.340 10000.000 0.000 1.329
3 9.00 1200.02 366 1083 1.340 10000.000 0.000 1.329
4 12.00 1200.02 382 1046 1.340 10000.000 0.000 1.329
5 15.00 1200.02 369 1029 1.340 10000.000 0.000 1.329
6 18.00 1200.02 383 1028 1.340 10000.000 0.000 1.329
7 21.00 1200.02 382 1054 1.340 10000.000 0.000 1.329
8 24.00 1200.02 391 1030 1.340 10000.000 0.000 1.329
9 27.00 1200.02 351 1011 1.340 10000.000 0.000 1.329
10 30.00 1200.02 377 949 1.340 10000.000 0.000 1.329
11 33.00 1200.02 348 978 1.340 10000.000 0.000 1.329
12 36.00 1200.02 331 963 1.340 10000.000 0.000 1.329
13 39.00 1200.02 364 981 1.340 10000.000 0.000 1.329
14 42.00 1200.02 368 1000 1.340 10000.000 0.000 1.329
15 45.00 1200.02 393 1006 1.340 10000.000 0.000 1.329
16 48.00 1200.02 366 1064 1.340 10000.000 0.000 1.329
17 51.00 1200.02 329 984 1.340 10000.000 0.000 1.329
18 54.00 1200.02 395 1080 1.340 10000.000 0.000 1.329
19 57.00 1200.02 367 1005 1.340 10000.000 0.000 1.329
20 60.00 1200.02 366 1104 1.340 10000.000 0.000 1.329
21 63.00 1200.02 382 1021 1.340 10000.000 0.000 1.329
22 66.00 1200.02 398 1029 1.340 10000.000 0.000 1.329
23 69.00 1200.02 344 1073 1.340 10000.000 0.000 1.329
24 72.00 1200.02 364 1050 1.340 10000.000 0.000 1.329
25 75.00 1200.02 346 1067 1.340 10000.000 0.000 1.329
26 78.00 1200.02 366 1072 1.340 10000.000 0.000 1.329
27 81.00 1200.02 357 1088 1.340 10000.000 0.000 1.329
28 84.00 1200.02 364 1085 1.340 10000.000 0.000 1.329
29 87.00 1200.02 325 1090 1.340 10000.000 0.000 1.329
30 90.00 1200.02 319 1067 1.340 10000.000 0.000 1.329
31 93.00 1200.02 346 1057 1.340 10000.000 0.000 1.329
32 96.00 1200.02 377 1003 1.340 10000.000 0.000 1.329
33 99.00 1200.02 366 1024 1.340 10000.000 0.000 1.329
34 102.00 1200.02 344 1066 1.340 10000.000 0.000 1.329
35 105.00 1200.02 357 1043 1.340 10000.000 0.000 1.329
36 108.00 1200.02 331 1101 1.340 10000.000 0.000 1.329
37 111.00 1200.02 356 1040 1.340 10000.000 0.000 1.329
38 114.00 1200.02 369 1004 1.340 10000.000 0.000 1.329
39 117.00 1200.02 367 1032 1.340 10000.000 0.000 1.329
40 120.00 1200.02 374 1045 1.340 10000.000 0.000 1.329
41 123.00 1200.02 386 1013 1.340 10000.000 0.000 1.329
42 126.00 1200.02 360 1052 1.340 10000.000 0.000 1.329
43 129.00 1200.02 390 1022 1.340 10000.000 0.000 1.329
44 132.00 1200.02 373 965 1.340 10000.000 0.000 1.329
45 135.00 1200.02 360 954 1.340 10000.000 0.000 1.329
46 138.00 1200.02 362 963 1.340 10000.000 0.000 1.329
47 141.00 1200.02 338 997 1.340 10000.000 0.000 1.329
48 144.00 1200.02 370 982 1.340 10000.000 0.000 1.329
49 147.00 1200.02 397 959 1.340 10000.000 0.000 1.329
50 150.00 1200.02 403 965 1.340 10000.000 0.000 1.329
51 153.00 1200.02 384 936 1.340 10000.000 0.000 1.329
52 156.00 1200.02 339 1010 1.340 10000.000 0.000 1.329
53 159.00 1200.02 381 1029 1.340 10000.000 0.000 1.329
54 162.00 1200.02 362 989 1.340 10000.000 0.000 1.329
55 165.00 1200.02 396 1086 1.340 10000.000 0.000 1.329
56 168.00 1200.02 352 1073 1.340 10000.000 0.000 1.329
57 171.00 1200.02 368 1019 1.340 10000.000 0.000 1.329
58 174.00 1200.02 362 1164 1.340 10000.000 0.000 1.329
59 177.00 1200.02 353 1032 1.340 10000.000 0.000 1.329
60 180.00 1200.02 367 993 1.340 10000.000 0.000 1.329
61 183.00 1200.02 311 965 1.340 10000.000 0.000 1.329
62 186.00 1200.02 336 1036 1.340 10000.000 0.000 1.329
63 189.00 1200.02 322 983 1.340 10000.000 0.000 1.329
64 192.00 1200.02 361 1030 1.340 10000.000 0.000 1.329
65 195.00 1200.02 348 983 1.340 10000.000 0.000 1.329
66 198.00 1200.02 373 1036 1.340 10000.000 0.000 1.329
67 201.00 1200.02 316 1015 1.340 10000.000 0.000 1.329
68 204.00 1200.02 340 1043 1.340 10000.000 0.000 1.329
69 207.00 1200.02 381 1026 1.340 10000.000 0.000 1.329
70 210.00 1200.02 358 1138 1.340 10000.000 0.000 1.329
71 213.00 1200.02 365 1028 1.340 10000.000 0.000 1.329
72 216.00 1200.02 367 980 1.340 10000.000 0.000 1.329
73 219.00 1200.02 359 1030 1.340 10000.000 0.000 1.329
74 222.00 1200.02 351 1030 1.340 10000.000 0.000 1.329
75 225.00 1200.02 372 1078 1.340 10000.000 0.000 1.329
76 228.00 1200.02 402 1055 1.340 10000.000 0.000 1.329
77 231.00 1200.02 320 980 1.340 10000.000 0.000 1.329
78 234.00 1200.02 412 1050 1.340 10000.000 0.000 1.329
79 237.00 1200.02 355 979 1.340 10000.000 0.000 1.329
80 240.00 1200.02 372 945 1.340 10000.000 0.000 1.329
81 243.00 1200.02 359 937 1.340 10000.000 0.000 1.329
82 246.00 1200.02 391 1011 1.340 10000.000 0.000 1.329
83 249.00 1200.02 355 966 1.340 10000.000 0.000 1.329
84 252.00 1200.02 391 994 1.340 10000.000 0.000 1.329
85 255.00 1200.02 339 1016 1.340 10000.000 0.000 1.329
86 258.00 1200.02 365 978 1.340 10000.000 0.000 1.329
87 261.00 1200.02 334 986 1.340 10000.000 0.000 1.329
88 264.00 1200.02 368 1085 1.340 10000.000 0.000 1.329
89 267.00 1200.02 389 1015 1.340 10000.000 0.000 1.329
90 270.00 1200.02 388 1070 1.340 10000.000 0.000 1.329
91 273.00 1200.02 341 1037 1.340 10000.000 0.000 1.329
92 276.00 1200.02 364 1068 1.340 10000.000 0.000 1.329
93 279.00 1200.02 358 1042 1.340 10000.000 0.000 1.329
94 282.00 1200.02 364 1014 1.340 10000.000 0.000 1.329
95 285.00 1200.02 350 993 1.340 10000.000 0.000 1.329
96 288.00 1200.02 345 1092 1.340 10000.000 0.000 1.329
97 291.00 1200.02 372 1015 1.340 10000.000 0.000 1.329
98 294.00 1200.02 355 1028 1.340 10000.000 0.000 1.329
99 297.00 1200.02 356 991 1.340 10000.000 0.000 1.329
100 300.00 1200.02 332 1030 1.340 10000.000 0.000 1.329
101 303.00 1200.02 350 1067 1.340 10000.000 0.000 1.329
102 306.00 1200.02 353 1085 1.340 10000.000 0.000 1.329
103 309.00 1200.02 362 1050 1.340 10000.000 0.000 1.329
104 312.00 1200.02 387 1025 1.340 10000.000 0.000 1.329
105 315.00 1200.02 332 1052 1.340 10000.000 0.000 1.329
106 318.00 1200.02 355 1052 1.340 10000.000 0.000 1.329
107 321.00 1200.02 374 1046 1.340 10000.000 0.000 1.329
108 324.00 1200.02 380 1082 1.340 10000.000 0.000 1.329
109 327.00 1200.02 379 1002 1.340 10000.000 0.000 1.329
110 330.00 1200.02 355 1024 1.340 10000.000 0.000 1.329
111 333.00 1200.02 381 974 1.340 10000.000 0.000 1.329
112 336.00 1200.02 386 955 1.340 10000.000 0.000 1.329
113 339.00 1200.02 333 951 1.340 10000.000 0.000 1.329
114 342.00 1200.02 365 990 1.340 10000.000 0.000 1.329
115 345.00 1200.02 377 932 1.340 10000.000 0.000 1.329
116 348.00 1200.02 362 992 1.340 10000.000 0.000 1.329
117 351.00 1200.02 386 953 1.340 10000.000 0.000 1.329
118 354.00 1200.02 400 967 1.340 10000.000 0.000 1.329
119 357.00 1200.02 358 1042 1.340 10000.000 0.000 1.329
120 360.00 1200.02 362 1030 1.340 10000.000 0.000 1.329
121 363.00 1200.02 370 1003 1.340 10000.000 0.000 1.329
122 366.00 1200.02 376 1039 1.340 10000.000 0.000 1.329
123 369.00 1200.02 359 1081 1.340 10000.000 0.000 1.329
124 372.00 1200.02 329 977 1.340 10000.000 0.000 1.329
125 375.00 1200.02 364 966 1.340 10000.000 0.000 1.329
126 378.00 1200.02 347 1037 1.340 10000.000 0.000 1.329
127 381.00 1200.02 331 1008 1.340 10000.000 0.000 1.329
128 384.00 1200.02 359 1026 1.340 10000.000 0.000 1.329
129 387.00 1200.02 364 996 1.340 10000.000 0.000 1.329
130 390.00 1200.02 374 1022 1.340 10000.000 0.000 1.329
131 393.00 1200.02 324 1039 1.340 10000.000 0.000 1.329
132 396.00 1200.02 337 1020 1.340 10000.000 0.000 1.329
133 399.00 1200.02 349 1032 1.340 10000.000 0.000 1.329
134 402.00 1200.02 338 1055 1.340 10000.000 0.000 1.329
