# BinNR microsec tot-time (s)  O-Beam AUX Ampl(V) f(Hz) phase(deg) chi(pos)
0 0.00 1200.03 161 519 1.340 10000.000 0.000 1.516
1 3.00 1200.03 388 1068 1.340 10000.000 0.000 1.516
2 6.00 1200.03 364 1077 1.340 10000.000 0.000 1.516
3 9.00 1200.03 329 986 1.340 10000.000 0.000 1.516
4 12.00 1200.03 422 971 1.340 10000.000 0.000 1.516
5 15.00 1200.03 334 922 1.340 10000.000 0.000 1.516
6 18.00 1200.03 363 982 1.340 10000.000 0.000 1.516
7 21.00 1200.03 337 894 1.340 10000.000 0.000 1.516
8 24.00 1200.03 347 878 1.340 10000.000 0.000 1.516
9 27.00 1200.03 317 880 1.340 10000.000 0.000 1.516
10 30.00 1200.03 318 807 1.340 10000.000 0.000 1.516
11 33.00 1200.03 326 815 1.340 10000.000 0.000 1.516
12 36.00 1200.03 355 828 1.340 10000.000 0.000 1.516
13 39.00 1200.03 361 799 1.340 10000.000 0.000 1.516
14 42.00 1200.03 310 840 1.340 10000.000 0.000 1.516
15 45.00 1200.03 323 798 1.340 10000.000 0.000 1.516
16 48.00 1200.03 350 820 1.340 10000.000 0.000 1.516
17 51.00 1200.03 323 882 1.340 10000.000 0.000 1.516
18 54.00 1200.03 310 826 1.340 10000.000 0.000 1.516
19 57.00 1200.03 343 853 1.340 10000.000 0.000 1.516
20 60.00 1200.03 363 864 1.340 10000.000 0.000 1.516
21 63.00 1200.03 361 890 1.340 10000.000 0.000 1.516
22 66.00 1200.03 364 962 1.340 10000.000 0.000 1.516
23 69.00 1200.03 385 908 1.340 10000.000 0.000 1.516
24 72.00 1200.03 362 1014 1.340 10000.000 0.000 1.516
25 75.00 1200.03 370 922 1.340 10000.000 0.000 1.516
26 78.00 1200.03 361 984 1.340 10000.000 0.000 1.516
27 81.00 1200.03 376 1096 1.340 10000.000 0.000 1.516
28 84.00 1200.03 378 1020 1.340 10000.000 0.000 1.516
29 87.00 1200.03 352 1067 1.340 10000.000 0.000 1.516
30 90.00 1200.03 371 1029 1.340 10000.000 0.000 1.516
31 93.00 1200.03 393 1015 1.340 10000.000 0.000 1.516
32 96.00 1200.03 379 1021 1.340 10000.000 0.000 1.516
33 99.00 1200.03 391 1010 1.340 10000.000 0.000 1.516
34 102.00 1200.03 406 1073 1.340 10000.000 0.000 1.516
35 105.00 1200.03 380 1043 1.340 10000.000 0.000 1.516
36 108.00 1200.03 361 948 1.340 10000.000 0.000 1.516
37 111.00 1200.03 365 1097 1.340 10000.000 0.000 1.516
38 114.00 1200.03 338 1012 1.340 10000.000 0.000 1.516
39 117.00 1200.03 337 1003 1.340 10000.000 0.000 1.516
40 120.00 1200.03 390 952 1.340 10000.000 0.000 1.516
41 123.00 1200.03 352 931 1.340 10000.000 0.000 1.516
42 126.00 1200.03 358 903 1.340 10000.000 0.000 1.516
43 129.00 1200.03 340 845 1.340 10000.000 0.000 1.516
44 132.00 1200.03 343 875 1.340 10000.000 0.000 1.516
45 135.00 1200.03 332 807 1.340 10000.000 0.000 1.516
46 138.00 1200.03 376 804 1.340 10000.000 0.000 1.516
47 141.00 1200.03 331 792 1.340 10000.000 0.000 1.516
48 144.00 1200.03 352 782 1.340 10000.000 0.000 1.516
49 147.00 1200.03 301 781 1.340 10000.000 0.000 1.516
50 150.00 1200.03 335 852 1.340 10000.000 0.000 1.516
51 153.00 1200.03 382 845 1.340 10000.000 0.000 1.516
52 156.00 1200.03 343 848 1.340 10000.000 0.000 1.516
53 159.00 1200.03 366 844 1.340 10000.000 0.000 1.516
54 162.00 1200.03 354 853 1.340 10000.000 0.000 1.516
55 165.00 1200.03 331 890 1.340 10000.000 0.000 1.516
56 168.00 1200.03 392 998 1.340 10000.000 0.000 1.516
57 171.00 1200.03 409 990 1.340 10000.000 0.000 1.516
58 174.00 1200.03 371 951 1.340 10000.000 0.000 1.516
59 177.00 1200.03 352 982 1.340 10000.000 0.000 1.516
60 180.00 1200.03 369 1006 1.340 10000.000 0.000 1.516
61 183.00 1200.03 353 1073 1.340 10000.000 0.000 1.516
62 186.00 1200.03 363 1043 1.340 10000.000 0.000 1.516
63 189.00 1200.03 355 1070 1.340 10000.000 0.000 1.516
64 192.00 1200.03 354 1035 1.340 10000.000 0.000 1.516
65 195.00 1200.03 385 1092 1.340 10000.000 0.000 1.516
66 198.00 1200.03 366 1074 1.340 10000.000 0.000 1.516
67 201.00 1200.03 373 998 1.340 10000.000 0.000 1.516
68 204.00 1200.03 376 1036 1.340 10000.000 0.000 1.516
69 207.00 1200.03 399 1015 1.340 10000.000 0.000 1.516
70 210.00 1200.03 357 1054 1.340 10000.000 0.000 1.516
71 213.00 1200.03 342 993 1.340 10000.000 0.000 1.516
72 216.00 1200.03 386 1005 1.340 10000.000 0.000 1.516
73 219.00 1200.03 339 965 1.340 10000.000 0.000 1.516
74 222.00 1200.03 354 948 1.340 10000.000 0.000 1.516
75 225.00 1200.03 317 911 1.340 10000.000 0.000 1.516
76 228.00 1200.03 358 888 1.340 10000.000 0.000 1.516
77 231.00 1200.03 346 885 1.340 10000.000 0.000 1.516
78 234.00 1200.03 356 833 1.340 10000.000 0.000 1.516
79 237.00 1200.03 330 777 1.340 10000.000 0.000 1.516
80 240.00 1200.03 321 774 1.340 10000.000 0.000 1.516
81 243.00 1200.03 316 793 1.340 10000.000 0.000 1.516
82 246.00 1200.03 352 812 1.340 10000.000 0.000 1.516
83 249.00 1200.03 336 816 1.340 10000.000 0.000 1.516
84 252.00 1200.03 320 805 1.340 10000.000 0.000 1.516
85 255.00 1200.03 345 844 1.340 10000.000 0.000 1.516
86 258.00 1200.03 351 869 1.340 10000.000 0.000 1.516
87 261.00 1200.03 363 811 1.340 10000.000 0.000 1.516
88 264.00 1200.03 350 906 1.340 10000.000 0.000 1.516
89 267.00 1200.03 356 911 1.340 10000.000 0.000 1.516
90 270.00 1200.03 356 957 1.340 10000.000 0.000 1.516
91 273.00 1200.03 359 978 1.340 10000.000 0.000 1.516
92 276.00 1200.03 391 1001 1.340 10000.000 0.000 1.516
93 279.00 1200.03 349 1038 1.340 10000.000 0.000 1.516
94 282.00 1200.03 390 1029 1.340 10000.000 0.000 1.516
95 285.00 1200.03 364 992 1.340 10000.000 0.000 1.516
96 288.00 1200.03 371 1033 1.340 10000.000 0.000 1.516
97 291.00 1200.03 388 1046 1.340 10000.000 0.000 1.516
98 294.00 1200.03 410 1048 1.340 10000.000 0.000 1.516
99 297.00 1200.03 382 1085 1.340 10000.000 0.000 1.516
100 300.00 1200.03 365 1080 1.340 10000.000 0.000 1.516
101 303.00 1200.03 388 1037 1.340 10000.000 0.000 1.516
102 306.00 1200.03 369 1030 1.340 10000.000 0.000 1.516
103 309.00 1200.03 358 1059 1.340 10000.000 0.000 1.516
104 312.00 1200.03 345 1033 1.340 10000.000 0.000 1.516
105 315.00 1200.03 388 967 1.340 10000.000 0.000 1.516
106 318.00 1200.03 378 997 1.340 10000.000 0.000 1.516
107 321.00 1200.03 353 935 1.340 10000.000 0.000 1.516
108 324.00 1200.03 368 889 1.340 10000.000 0.000 1.516
109 327.00 1200.03 320 845 1.340 10000.000 0.000 1.516
110 330.00 1200.03 356 908 1.340 10000.000 0.000 1.516
111 333.00 1200.03 342 807 1.340 10000.000 0.000 1.516
112 336.00 1200.03 318 753 1.340 10000.000 0.000 1.516
113 339.00 1200.03 347 768 1.340 10000.000 0.000 1.516
114 342.00 1200.03 352 810 1.340 10000.000 0.000 1.516
115 345.00 1200.03 328 787 1.340 10000.000 0.000 1.516
116 348.00 1200.03 352 793 1.340 10000.000 0.000 1.516
117 351.00 1200.03 363 812 1.340 10000.000 0.000 1.516
118 354.00 1200.03 348 813 1.340 10000.000 0.000 1.516
119 357.00 1200.03 323 840 1.340 10000.000 0.000 1.516
120 360.00 1200.03 352 859 1.340 10000.000 0.000 1.516
121 363.00 1200.03 342 892 1.340 10000.000 0.000 1.516
122 366.00 1200.03 394 952 1.340 10000.000 0.000 1.516
123 369.00 1200.03 319 937 1.340 10000.000 0.000 1.516
124 372.00 1200.03 357 991 1.340 10000.000 0.000 1.516
125 375.00 1200.03 362 1017 1.340 10000.000 0.000 1.516
126 378.00 1200.03 372 982 1.340 10000.000 0.000 1.516
127 381.00 1200.03 388 960 1.340 10000.000 0.000 1.516
128 384.00 1200.03 361 1031 1.340 10000.000 0.000 1.516
129 387.00 1200.03 372 1100 1.340 10000.000 0.000 1.516
130 390.00 1200.03 375 1062 1.340 10000.000 0.000 1.516
131 393.00 1200.03 384 1044 1.340 10000.000 0.000 1.516
132 396.00 1200.03 371 1081 1.340 10000.000 0.000 1.516
133 399.00 1200.03 362 1043 1.340 10000.000 0.000 1.516
134 402.00 1200.03 351 1060 1.340 10000.000 0.000 1.516
